Time,Angle,AngularVelocity,AngularAcceleration,TangentialVelocity,RadialAcceleration,TangentialAcceleration,xPosition,yPosition,zPosition,Weight,Tension
0.0,0.5236,0.0,-3.26667,0.0,-0.0,-4.9,1.29904,0.75,0.0,9.8,8.48705
0.005,0.52356,-0.01633,-3.26644,-0.0245,-0.0004,-4.89966,1.29907,0.74995,0.0,9.8,8.48765
0.01,0.52344,-0.03266,-3.26574,-0.04899,-0.0016,-4.89861,1.29916,0.74979,0.0,9.8,8.48945
0.015,0.52323,-0.04899,-3.26459,-0.07348,-0.0036,-4.89688,1.29931,0.74952,0.0,9.8,8.49245
0.02,0.52295,-0.06531,-3.26297,-0.09797,-0.0064,-4.89446,1.29952,0.74916,0.0,9.8,8.49665
0.025,0.52258,-0.08162,-3.26089,-0.12243,-0.00999,-4.89134,1.2998,0.74868,0.0,9.8,8.50204
0.03,0.52213,-0.09792,-3.25835,-0.14688,-0.01438,-4.88752,1.30014,0.74809,0.0,9.8,8.50862
0.035,0.5216,-0.1142,-3.25535,-0.1713,-0.01956,-4.88302,1.30053,0.7474,0.0,9.8,8.51639
0.04,0.52099,-0.13047,-3.25188,-0.1957,-0.02553,-4.87782,1.30099,0.74661,0.0,9.8,8.52535
0.045,0.52029,-0.14672,-3.24795,-0.22008,-0.03229,-4.87192,1.30151,0.7457,0.0,9.8,8.53548
0.05,0.51952,-0.16295,-3.24356,-0.24442,-0.03983,-4.86534,1.30209,0.7447,0.0,9.8,8.54679
0.055,0.51866,-0.17915,-3.23871,-0.26872,-0.04814,-4.85806,1.30273,0.74358,0.0,9.8,8.55927
0.06,0.51773,-0.19533,-3.2334,-0.293,-0.05723,-4.8501,1.30342,0.74236,0.0,9.8,8.5729
0.065,0.51671,-0.21149,-3.22762,-0.31724,-0.06709,-4.84143,1.30417,0.74103,0.0,9.8,8.58768
0.07,0.51561,-0.22761,-3.22138,-0.34142,-0.07771,-4.83207,1.30499,0.7396,0.0,9.8,8.60361
0.075,0.51444,-0.2437,-3.21468,-0.36555,-0.08908,-4.82202,1.30585,0.73807,0.0,9.8,8.62068
0.08,0.51318,-0.25976,-3.20752,-0.38964,-0.10121,-4.81128,1.30678,0.73643,0.0,9.8,8.63886
0.085,0.51184,-0.27577,-3.1999,-0.41366,-0.11407,-4.79985,1.30777,0.73467,0.0,9.8,8.65817
0.09,0.51042,-0.29175,-3.19182,-0.43763,-0.12768,-4.78773,1.30881,0.73282,0.0,9.8,8.67857
0.095,0.50892,-0.30769,-3.18327,-0.46154,-0.14201,-4.7749,1.30991,0.73085,0.0,9.8,8.70007
0.1,0.50734,-0.32359,-3.17426,-0.48538,-0.15707,-4.76139,1.31106,0.72878,0.0,9.8,8.72264
0.105,0.50568,-0.33943,-3.16479,-0.50914,-0.17282,-4.74718,1.31227,0.7266,0.0,9.8,8.74628
0.11,0.50395,-0.35523,-3.15486,-0.53284,-0.18928,-4.73229,1.31352,0.72433,0.0,9.8,8.77098
0.115,0.50213,-0.37098,-3.14447,-0.55647,-0.20644,-4.7167,1.31484,0.72194,0.0,9.8,8.79671
0.12,0.50024,-0.38668,-3.13361,-0.58002,-0.22428,-4.70041,1.3162,0.71945,0.0,9.8,8.82347
0.125,0.49827,-0.40232,-3.1223,-0.60348,-0.24279,-4.68345,1.31762,0.71686,0.0,9.8,8.85123
0.13,0.49622,-0.4179,-3.11053,-0.62685,-0.26196,-4.66579,1.31908,0.71416,0.0,9.8,8.87999
0.135,0.49409,-0.43342,-3.09829,-0.65013,-0.28178,-4.64744,1.3206,0.71135,0.0,9.8,8.90972
0.14,0.49188,-0.44888,-3.0856,-0.67332,-0.30224,-4.6284,1.32217,0.70843,0.0,9.8,8.94041
0.145,0.4896,-0.46428,-3.07244,-0.69642,-0.32333,-4.60866,1.32378,0.70541,0.0,9.8,8.97204
0.15,0.48724,-0.47961,-3.05883,-0.71941,-0.34504,-4.58824,1.32544,0.70228,0.0,9.8,9.0046
0.155,0.4848,-0.49486,-3.04475,-0.74229,-0.36733,-4.56712,1.32715,0.69905,0.0,9.8,9.03805
0.16,0.48229,-0.51005,-3.03022,-0.76508,-0.39023,-4.54533,1.3289,0.69571,0.0,9.8,9.07239
0.165,0.4797,-0.52517,-3.01523,-0.78776,-0.41371,-4.52284,1.3307,0.69227,0.0,9.8,9.1076
0.17,0.47704,-0.5402,-2.99978,-0.8103,-0.43772,-4.49967,1.33254,0.68873,0.0,9.8,9.14364
0.175,0.4743,-0.55516,-2.98388,-0.83274,-0.4623,-4.47582,1.33442,0.68507,0.0,9.8,9.18051
0.18,0.47149,-0.57004,-2.96752,-0.85506,-0.48742,-4.45128,1.33634,0.68132,0.0,9.8,9.21818
0.185,0.4686,-0.58484,-2.9507,-0.87726,-0.51306,-4.42605,1.3383,0.67746,0.0,9.8,9.25663
0.19,0.46564,-0.59955,-2.93343,-0.89932,-0.53919,-4.40014,1.3403,0.67349,0.0,9.8,9.29583
0.195,0.4626,-0.61417,-2.9157,-0.92126,-0.56581,-4.37355,1.34234,0.66941,0.0,9.8,9.33576
0.2,0.4595,-0.6287,-2.89752,-0.94305,-0.5929,-4.34628,1.34441,0.66525,0.0,9.8,9.3764
0.205,0.45632,-0.64315,-2.87888,-0.96472,-0.62046,-4.31832,1.34652,0.66097,0.0,9.8,9.41773
0.21,0.45307,-0.65749,-2.8598,-0.98624,-0.64844,-4.2897,1.34866,0.65659,0.0,9.8,9.45972
0.215,0.44974,-0.67174,-2.84026,-1.00761,-0.67685,-4.26039,1.35084,0.6521,0.0,9.8,9.50233
0.22,0.44635,-0.68589,-2.82028,-1.02884,-0.70567,-4.23042,1.35304,0.64751,0.0,9.8,9.54556
0.225,0.44288,-0.69994,-2.79984,-1.04991,-0.73487,-4.19976,1.35528,0.64282,0.0,9.8,9.58937
0.23,0.43935,-0.71389,-2.77896,-1.07084,-0.76446,-4.16844,1.35754,0.63803,0.0,9.8,9.63374
0.235,0.43575,-0.72773,-2.75763,-1.09159,-0.79439,-4.13644,1.35983,0.63314,0.0,9.8,9.67864
0.24,0.43207,-0.74147,-2.73586,-1.1122,-0.82467,-4.10379,1.36215,0.62813,0.0,9.8,9.72404
0.245,0.42833,-0.75509,-2.71364,-1.13264,-0.85524,-4.07046,1.36449,0.62303,0.0,9.8,9.76992
0.25,0.42452,-0.7686,-2.69098,-1.1529,-0.88612,-4.03647,1.36685,0.61783,0.0,9.8,9.81624
0.255,0.42064,-0.782,-2.66788,-1.173,-0.91729,-4.00182,1.36924,0.61252,0.0,9.8,9.86298
0.26,0.4167,-0.79528,-2.64434,-1.19292,-0.94871,-3.96651,1.37164,0.60712,0.0,9.8,9.91011
0.265,0.41269,-0.80844,-2.62037,-1.21266,-0.98036,-3.93056,1.37407,0.60161,0.0,9.8,9.9576
0.27,0.40862,-0.82148,-2.59596,-1.23222,-1.01224,-3.89394,1.37651,0.59601,0.0,9.8,10.00543
0.275,0.40448,-0.8344,-2.57112,-1.2516,-1.04434,-3.85668,1.37896,0.59031,0.0,9.8,10.05356
0.28,0.40027,-0.84719,-2.54585,-1.27078,-1.0766,-3.81878,1.38143,0.5845,0.0,9.8,10.10196
0.285,0.39601,-0.85986,-2.52015,-1.28979,-1.10904,-3.78022,1.38391,0.57861,0.0,9.8,10.15061
0.29,0.39168,-0.8724,-2.49402,-1.3086,-1.14162,-3.74103,1.3864,0.57261,0.0,9.8,10.19946
0.295,0.38728,-0.8848,-2.46747,-1.3272,-1.17431,-3.7012,1.38891,0.56651,0.0,9.8,10.24851
0.3,0.38283,-0.89707,-2.44049,-1.3456,-1.2071,-3.66074,1.39142,0.56032,0.0,9.8,10.2977
0.305,0.37831,-0.9092,-2.4131,-1.3638,-1.23997,-3.61965,1.39394,0.55403,0.0,9.8,10.34701
0.31,0.37374,-0.9212,-2.38529,-1.3818,-1.27291,-3.57794,1.39645,0.54765,0.0,9.8,10.39642
0.315,0.3691,-0.93306,-2.35707,-1.39959,-1.3059,-3.53561,1.39898,0.54116,0.0,9.8,10.44588
0.32,0.36441,-0.94477,-2.32844,-1.41716,-1.33889,-3.49266,1.4015,0.5346,0.0,9.8,10.49538
0.325,0.35965,-0.95634,-2.2994,-1.43451,-1.37188,-3.4491,1.40403,0.52792,0.0,9.8,10.54487
0.33,0.35484,-0.96776,-2.26996,-1.45164,-1.40484,-3.40494,1.40655,0.52116,0.0,9.8,10.59432
0.335,0.34998,-0.97904,-2.24011,-1.46856,-1.43778,-3.36016,1.40907,0.51432,0.0,9.8,10.64371
0.34,0.34505,-0.99016,-2.20987,-1.48524,-1.47063,-3.3148,1.41159,0.50737,0.0,9.8,10.693
0.345,0.34007,-1.00114,-2.17924,-1.50171,-1.50342,-3.26886,1.4141,0.50033,0.0,9.8,10.74217
0.35,0.33504,-1.01196,-2.14821,-1.51794,-1.53609,-3.22232,1.4166,0.49321,0.0,9.8,10.79117
0.355,0.32995,-1.02262,-2.1168,-1.53393,-1.56863,-3.1752,1.41909,0.48599,0.0,9.8,10.83998
0.36,0.32482,-1.03312,-2.08501,-1.54968,-1.60101,-3.12752,1.42156,0.47871,0.0,9.8,10.88857
0.365,0.31962,-1.04347,-2.05283,-1.5652,-1.63324,-3.07924,1.42403,0.47131,0.0,9.8,10.9369
0.37,0.31438,-1.05365,-2.02029,-1.58047,-1.66527,-3.03044,1.42648,0.46384,0.0,9.8,10.98495
0.375,0.30909,-1.06367,-1.98737,-1.5955,-1.69709,-2.98106,1.42892,0.45629,0.0,9.8,11.03268
0.38,0.30374,-1.07352,-1.95409,-1.61028,-1.72867,-2.93114,1.43134,0.44864,0.0,9.8,11.08007
0.385,0.29835,-1.08321,-1.92045,-1.62482,-1.76002,-2.88068,1.43373,0.44092,0.0,9.8,11.12707
0.39,0.29291,-1.09273,-1.88645,-1.6391,-1.79109,-2.82968,1.43611,0.43311,0.0,9.8,11.17367
0.395,0.28743,-1.10207,-1.8521,-1.6531,-1.82184,-2.77815,1.43846,0.42523,0.0,9.8,11.21982
0.4,0.28189,-1.11125,-1.8174,-1.66688,-1.85231,-2.7261,1.4408,0.41726,0.0,9.8,11.26551
0.405,0.27631,-1.12025,-1.78236,-1.68038,-1.88244,-2.67354,1.4431,0.40921,0.0,9.8,11.31069
0.41,0.27069,-1.12907,-1.74699,-1.6936,-1.9122,-2.62048,1.44538,0.40109,0.0,9.8,11.35535
0.415,0.26502,-1.13772,-1.71128,-1.70658,-1.94161,-2.56692,1.44763,0.39289,0.0,9.8,11.39945
0.42,0.25931,-1.14618,-1.67525,-1.71927,-1.97059,-2.51287,1.44985,0.38462,0.0,9.8,11.44295
0.425,0.25356,-1.15447,-1.63891,-1.73171,-1.9992,-2.45836,1.45204,0.37628,0.0,9.8,11.48584
0.43,0.24777,-1.16257,-1.60224,-1.74386,-2.02735,-2.40336,1.45419,0.36786,0.0,9.8,11.52809
0.435,0.24194,-1.17049,-1.56527,-1.75574,-2.05507,-2.3479,1.45631,0.35938,0.0,9.8,11.56966
0.44,0.23606,-1.17822,-1.528,-1.76733,-2.0823,-2.292,1.4584,0.35081,0.0,9.8,11.61052
0.445,0.23015,-1.18577,-1.49043,-1.77866,-2.10908,-2.23564,1.46045,0.34219,0.0,9.8,11.65066
0.45,0.22421,-1.19313,-1.45258,-1.7897,-2.13534,-2.17887,1.46246,0.3335,0.0,9.8,11.69004
0.455,0.21822,-1.2003,-1.41443,-1.80045,-2.16108,-2.12164,1.46443,0.32474,0.0,9.8,11.72864
0.46,0.2122,-1.20727,-1.37602,-1.8109,-2.18625,-2.06403,1.46635,0.31592,0.0,9.8,11.76643
0.465,0.20615,-1.21405,-1.33733,-1.82108,-2.21088,-2.006,1.46824,0.30704,0.0,9.8,11.80339
0.47,0.20006,-1.22064,-1.29838,-1.83096,-2.23494,-1.94757,1.47008,0.29809,0.0,9.8,11.83949
0.475,0.19394,-1.22704,-1.25918,-1.84056,-2.25844,-1.88877,1.47188,0.28909,0.0,9.8,11.8747
0.48,0.18779,-1.23324,-1.21972,-1.84986,-2.28132,-1.82958,1.47363,0.28003,0.0,9.8,11.90901
0.485,0.18161,-1.23924,-1.18002,-1.85886,-2.30357,-1.77003,1.47533,0.27092,0.0,9.8,11.94238
0.49,0.1754,-1.24504,-1.14009,-1.86756,-2.32519,-1.71014,1.47699,0.26175,0.0,9.8,11.9748
0.495,0.16916,-1.25064,-1.09993,-1.87596,-2.34615,-1.6499,1.47859,0.25253,0.0,9.8,12.00625
0.5,0.1629,-1.25603,-1.05955,-1.88404,-2.36642,-1.58932,1.48014,0.24327,0.0,9.8,12.0367
0.505,0.1566,-1.26123,-1.01896,-1.89184,-2.38605,-1.52844,1.48164,0.23394,0.0,9.8,12.06613
0.51,0.15028,-1.26622,-0.97816,-1.89933,-2.40497,-1.46724,1.48309,0.22457,0.0,9.8,12.09452
0.515,0.14394,-1.27101,-0.93717,-1.90652,-2.4232,-1.40576,1.48449,0.21517,0.0,9.8,12.12186
0.52,0.13757,-1.2756,-0.89598,-1.9134,-2.44073,-1.34397,1.48583,0.2057,0.0,9.8,12.14812
0.525,0.13118,-1.27997,-0.85462,-1.91996,-2.45748,-1.28193,1.48711,0.19621,0.0,9.8,12.17329
0.53,0.12477,-1.28414,-0.81308,-1.92621,-2.47352,-1.21962,1.48834,0.18667,0.0,9.8,12.19734
0.535,0.11834,-1.2881,-0.77138,-1.93215,-2.4888,-1.15707,1.48951,0.1771,0.0,9.8,12.22026
0.54,0.11189,-1.29185,-0.72952,-1.93777,-2.50331,-1.09428,1.49062,0.16749,0.0,9.8,12.24205
0.545,0.10543,-1.2954,-0.68751,-1.9431,-2.51709,-1.03126,1.49167,0.15785,0.0,9.8,12.26267
0.55,0.09894,-1.29873,-0.64536,-1.9481,-2.53005,-0.96804,1.49266,0.14817,0.0,9.8,12.28212
0.555,0.09244,-1.30185,-0.60307,-1.95278,-2.54222,-0.9046,1.4936,0.13846,0.0,9.8,12.30038
0.56,0.08592,-1.30476,-0.56067,-1.95714,-2.5536,-0.841,1.49447,0.12872,0.0,9.8,12.31744
0.565,0.07939,-1.30746,-0.51815,-1.96119,-2.56418,-0.77722,1.49528,0.11896,0.0,9.8,12.3333
0.57,0.07285,-1.30994,-0.47552,-1.96491,-2.57391,-0.71328,1.49602,0.10918,0.0,9.8,12.34793
0.575,0.06629,-1.31221,-0.43279,-1.96832,-2.58284,-0.64918,1.49671,0.09936,0.0,9.8,12.36132
0.58,0.05973,-1.31427,-0.38998,-1.9714,-2.59096,-0.58497,1.49733,0.08954,0.0,9.8,12.37348
0.585,0.05315,-1.31611,-0.34708,-1.97416,-2.59822,-0.52062,1.49788,0.07969,0.0,9.8,12.38439
0.59,0.04657,-1.31774,-0.30412,-1.97661,-2.60466,-0.45618,1.49837,0.06983,0.0,9.8,12.39403
0.595,0.03997,-1.31915,-0.26109,-1.97872,-2.61024,-0.39163,1.4988,0.05994,0.0,9.8,12.40242
0.6,0.03337,-1.32035,-0.218,-1.98052,-2.61499,-0.327,1.49916,0.05005,0.0,9.8,12.40953
0.605,0.02677,-1.32133,-0.17488,-1.982,-2.61887,-0.26232,1.49946,0.04015,0.0,9.8,12.41537
0.61,0.02016,-1.3221,-0.13171,-1.98315,-2.62192,-0.19756,1.4997,0.03024,0.0,9.8,12.41993
0.615,0.01355,-1.32265,-0.08852,-1.98398,-2.6241,-0.13278,1.49986,0.02032,0.0,9.8,12.4232
0.62,0.00694,-1.32298,-0.04531,-1.98447,-2.62541,-0.06796,1.49996,0.01041,0.0,9.8,12.42519
0.625,0.00032,-1.3231,-0.00209,-1.98465,-2.62589,-0.00314,1.5,0.00048,0.0,9.8,12.4259
0.63,-0.0063,-1.32301,0.04113,-1.98452,-2.62553,0.0617,1.49997,-0.00945,0.0,9.8,12.42532
0.635,-0.01291,-1.32269,0.08434,-1.98404,-2.62426,0.12651,1.49988,-0.01936,0.0,9.8,12.42345
0.64,-0.01952,-1.32216,0.12754,-1.98324,-2.62216,0.19131,1.49971,-0.02928,0.0,9.8,12.4203
0.645,-0.02613,-1.32142,0.1707,-1.98213,-2.61923,0.25605,1.49949,-0.03919,0.0,9.8,12.41586
0.65,-0.03274,-1.32045,0.21384,-1.98067,-2.61538,0.32076,1.4992,-0.0491,0.0,9.8,12.41015
0.655,-0.03934,-1.31928,0.25692,-1.97892,-2.61075,0.38538,1.49884,-0.05899,0.0,9.8,12.40316
0.66,-0.04593,-1.31789,0.29996,-1.97684,-2.60525,0.44994,1.49842,-0.06887,0.0,9.8,12.3949
0.665,-0.05251,-1.31628,0.34293,-1.97442,-2.59889,0.5144,1.49793,-0.07873,0.0,9.8,12.38537
0.67,-0.05909,-1.31446,0.38584,-1.97169,-2.59171,0.57876,1.49738,-0.08858,0.0,9.8,12.37459
0.675,-0.06566,-1.31242,0.42866,-1.96863,-2.58367,0.64299,1.49677,-0.09842,0.0,9.8,12.36255
0.68,-0.07221,-1.31017,0.47139,-1.96526,-2.57482,0.70708,1.49609,-0.10822,0.0,9.8,12.34928
0.685,-0.07876,-1.30771,0.51403,-1.96156,-2.56516,0.77104,1.49535,-0.11802,0.0,9.8,12.33476
0.69,-0.08529,-1.30503,0.55656,-1.95754,-2.55465,0.83484,1.49455,-0.12778,0.0,9.8,12.31903
0.695,-0.09181,-1.30214,0.59898,-1.95321,-2.54335,0.89847,1.49368,-0.13752,0.0,9.8,12.30208
0.7,-0.09831,-1.29904,0.64127,-1.94856,-2.53126,0.9619,1.49276,-0.14723,0.0,9.8,12.28394
0.705,-0.1048,-1.29573,0.68344,-1.9436,-2.51837,1.02516,1.49177,-0.15691,0.0,9.8,12.2646
0.71,-0.11127,-1.29221,0.72546,-1.93832,-2.50471,1.08819,1.49072,-0.16656,0.0,9.8,12.24409
0.715,-0.11772,-1.28847,0.76734,-1.9327,-2.49023,1.15101,1.48962,-0.17617,0.0,9.8,12.22242
0.72,-0.12415,-1.28453,0.80906,-1.92679,-2.47503,1.21359,1.48845,-0.18575,0.0,9.8,12.1996
0.725,-0.13057,-1.28038,0.85061,-1.92057,-2.45906,1.27591,1.48723,-0.1953,0.0,9.8,12.17566
0.73,-0.13696,-1.27603,0.89199,-1.91404,-2.44238,1.33798,1.48595,-0.2048,0.0,9.8,12.1506
0.735,-0.14333,-1.27146,0.93319,-1.90719,-2.42492,1.39978,1.48462,-0.21426,0.0,9.8,12.12445
0.74,-0.14967,-1.2667,0.97421,-1.90005,-2.40679,1.46132,1.48323,-0.22367,0.0,9.8,12.09721
0.745,-0.15599,-1.26172,1.01502,-1.89258,-2.38791,1.52253,1.48179,-0.23304,0.0,9.8,12.06892
0.75,-0.16229,-1.25655,1.05564,-1.88483,-2.36838,1.58346,1.48029,-0.24237,0.0,9.8,12.03959
0.755,-0.16856,-1.25117,1.09604,-1.87675,-2.34814,1.64406,1.47874,-0.25164,0.0,9.8,12.00924
0.76,-0.1748,-1.24559,1.13622,-1.86838,-2.32724,1.70433,1.47714,-0.26087,0.0,9.8,11.97789
0.765,-0.18101,-1.2398,1.17617,-1.8597,-2.30566,1.76426,1.47549,-0.27003,0.0,9.8,11.94556
0.77,-0.1872,-1.23382,1.21589,-1.85073,-2.28347,1.82384,1.47379,-0.27916,0.0,9.8,11.91227
0.775,-0.19335,-1.22765,1.25537,-1.84148,-2.26069,1.88306,1.47205,-0.28822,0.0,9.8,11.87806
0.78,-0.19947,-1.22127,1.2946,-1.8319,-2.23725,1.9419,1.47026,-0.29722,0.0,9.8,11.84293
0.785,-0.20556,-1.2147,1.33358,-1.82205,-2.21324,2.00037,1.46842,-0.30617,0.0,9.8,11.80692
0.79,-0.21162,-1.20794,1.37229,-1.81191,-2.18868,2.05844,1.46654,-0.31507,0.0,9.8,11.77004
0.795,-0.21764,-1.20098,1.41073,-1.80147,-2.16353,2.1161,1.46461,-0.32389,0.0,9.8,11.73233
0.8,-0.22363,-1.19383,1.4489,-1.79074,-2.13785,2.17335,1.46265,-0.33266,0.0,9.8,11.69381
0.805,-0.22958,-1.18649,1.48678,-1.77974,-2.11164,2.23017,1.46064,-0.34135,0.0,9.8,11.6545
0.81,-0.23549,-1.17896,1.52438,-1.76844,-2.08492,2.28657,1.4586,-0.34998,0.0,9.8,11.61444
0.815,-0.24137,-1.17125,1.56168,-1.75688,-2.05774,2.34252,1.45652,-0.35855,0.0,9.8,11.57364
0.82,-0.24721,-1.16334,1.59868,-1.74501,-2.03004,2.39802,1.4544,-0.36705,0.0,9.8,11.53214
0.825,-0.253,-1.15526,1.63537,-1.73289,-2.00194,2.45306,1.45225,-0.37546,0.0,9.8,11.48996
0.83,-0.25876,-1.14699,1.67175,-1.72048,-1.97338,2.50762,1.45006,-0.38382,0.0,9.8,11.44713
0.835,-0.26447,-1.13854,1.70781,-1.70781,-1.94441,2.56172,1.44785,-0.3921,0.0,9.8,11.40368
0.84,-0.27014,-1.12991,1.74355,-1.69486,-1.91504,2.61532,1.4456,-0.4003,0.0,9.8,11.35964
0.845,-0.27577,-1.12111,1.77896,-1.68167,-1.88533,2.66844,1.44332,-0.40843,0.0,9.8,11.31504
0.85,-0.28135,-1.11213,1.81403,-1.6682,-1.85525,2.72104,1.44102,-0.41648,0.0,9.8,11.2699
0.855,-0.28689,-1.10297,1.84876,-1.65446,-1.82481,2.77314,1.43869,-0.42446,0.0,9.8,11.22426
0.86,-0.29238,-1.09364,1.88314,-1.64046,-1.79407,2.82471,1.43634,-0.43235,0.0,9.8,11.17815
0.865,-0.29783,-1.08414,1.91717,-1.62621,-1.76304,2.87576,1.43396,-0.44017,0.0,9.8,11.13159
0.87,-0.30323,-1.07447,1.95085,-1.61171,-1.73173,2.92628,1.43157,-0.44791,0.0,9.8,11.08463
0.875,-0.30857,-1.06463,1.98417,-1.59694,-1.70016,2.97626,1.42915,-0.45554,0.0,9.8,11.03728
0.88,-0.31387,-1.05463,2.01712,-1.58194,-1.66837,3.02568,1.42672,-0.46311,0.0,9.8,10.98958
0.885,-0.31912,-1.04446,2.0497,-1.56669,-1.63635,3.07455,1.42427,-0.4706,0.0,9.8,10.94156
0.89,-0.32432,-1.03413,2.08191,-1.5512,-1.60414,3.12286,1.4218,-0.478,0.0,9.8,10.89325
0.895,-0.32946,-1.02364,2.11374,-1.53546,-1.57176,3.17061,1.41933,-0.4853,0.0,9.8,10.84469
0.9,-0.33455,-1.01299,2.14519,-1.51948,-1.53922,3.21778,1.41684,-0.49252,0.0,9.8,10.7959
0.905,-0.33959,-1.00219,2.17625,-1.50328,-1.50658,3.26438,1.41434,-0.49965,0.0,9.8,10.74691
0.91,-0.34457,-0.99123,2.20693,-1.48685,-1.47381,3.3104,1.41183,-0.50669,0.0,9.8,10.69776
0.915,-0.3495,-0.98012,2.23721,-1.47018,-1.44095,3.35582,1.40932,-0.51364,0.0,9.8,10.64848
0.92,-0.35437,-0.96886,2.26709,-1.45329,-1.40803,3.40064,1.4068,-0.5205,0.0,9.8,10.5991
0.925,-0.35919,-0.95745,2.29657,-1.43618,-1.37507,3.44486,1.40427,-0.52727,0.0,9.8,10.54965
0.93,-0.36395,-0.94589,2.32565,-1.41884,-1.34206,3.48848,1.40175,-0.53395,0.0,9.8,10.50016
0.935,-0.36865,-0.93419,2.35432,-1.40128,-1.30907,3.53148,1.39922,-0.54053,0.0,9.8,10.45067
0.94,-0.37329,-0.92235,2.38258,-1.38352,-1.27609,3.57387,1.3967,-0.54702,0.0,9.8,10.4012
0.945,-0.37787,-0.91037,2.41043,-1.36556,-1.24316,3.61564,1.39418,-0.55341,0.0,9.8,10.35179
0.95,-0.38239,-0.89825,2.43786,-1.34738,-1.21028,3.65679,1.39166,-0.55971,0.0,9.8,10.30246
0.955,-0.38685,-0.88599,2.46488,-1.32898,-1.17747,3.69732,1.38915,-0.56591,0.0,9.8,10.25326
0.96,-0.39125,-0.8736,2.49147,-1.3104,-1.14477,3.73721,1.38665,-0.57202,0.0,9.8,10.2042
0.965,-0.39559,-0.86108,2.51764,-1.29162,-1.11219,3.77646,1.38415,-0.57803,0.0,9.8,10.15532
0.97,-0.39986,-0.84842,2.54338,-1.27263,-1.07972,3.81507,1.38167,-0.58393,0.0,9.8,10.10665
0.975,-0.40407,-0.83564,2.56869,-1.25346,-1.04744,3.85304,1.3792,-0.58975,0.0,9.8,10.05823
0.98,-0.40822,-0.82274,2.59358,-1.23411,-1.01535,3.89037,1.37674,-0.59546,0.0,9.8,10.01007
0.985,-0.4123,-0.80971,2.61803,-1.21457,-0.98345,3.92704,1.3743,-0.60108,0.0,9.8,9.96221
0.99,-0.41632,-0.79656,2.64205,-1.19484,-0.95176,3.96308,1.37187,-0.6066,0.0,9.8,9.91469
0.995,-0.42027,-0.78329,2.66563,-1.17494,-0.92031,3.99844,1.36947,-0.61201,0.0,9.8,9.86752
1.0,-0.42415,-0.7699,2.68877,-1.15485,-0.88912,4.03316,1.36708,-0.61732,0.0,9.8,9.82074
1.005,-0.42797,-0.7564,2.71147,-1.1346,-0.85821,4.0672,1.36472,-0.62254,0.0,9.8,9.77437
1.01,-0.43171,-0.74279,2.73373,-1.11418,-0.82761,4.1006,1.36238,-0.62764,0.0,9.8,9.72846
1.015,-0.43539,-0.72907,2.75554,-1.0936,-0.79731,4.13331,1.36006,-0.63265,0.0,9.8,9.68301
1.02,-0.439,-0.71523,2.77692,-1.07284,-0.76733,4.16538,1.35777,-0.63755,0.0,9.8,9.63806
1.025,-0.44255,-0.7013,2.79784,-1.05195,-0.73773,4.19676,1.35549,-0.64237,0.0,9.8,9.59364
1.03,-0.44602,-0.68726,2.81832,-1.03089,-0.70849,4.22748,1.35326,-0.64707,0.0,9.8,9.54977
1.035,-0.44942,-0.67312,2.83835,-1.00968,-0.67964,4.25752,1.35105,-0.65166,0.0,9.8,9.50649
1.04,-0.45275,-0.65887,2.85793,-0.9883,-0.65116,4.2869,1.34887,-0.65616,0.0,9.8,9.46381
1.045,-0.45601,-0.64454,2.87706,-0.96681,-0.62315,4.31559,1.34673,-0.66055,0.0,9.8,9.42176
1.05,-0.45919,-0.6301,2.89574,-0.94515,-0.59554,4.34361,1.34462,-0.66483,0.0,9.8,9.38037
1.055,-0.46231,-0.61558,2.91396,-0.92337,-0.56841,4.37094,1.34254,-0.66903,0.0,9.8,9.33966
1.06,-0.46535,-0.60097,2.93173,-0.90146,-0.54175,4.3976,1.3405,-0.6731,0.0,9.8,9.29966
1.065,-0.46832,-0.58626,2.94905,-0.87939,-0.51555,4.42358,1.33849,-0.67708,0.0,9.8,9.26038
1.07,-0.47121,-0.57148,2.96591,-0.85722,-0.48988,4.44886,1.33653,-0.68095,0.0,9.8,9.22186
1.075,-0.47403,-0.55661,2.98232,-0.83492,-0.46472,4.47348,1.3346,-0.68471,0.0,9.8,9.18412
1.08,-0.47678,-0.54165,2.99826,-0.81248,-0.44008,4.49739,1.33272,-0.68838,0.0,9.8,9.14717
1.085,-0.47945,-0.52662,3.01376,-0.78993,-0.41599,4.52064,1.33087,-0.69194,0.0,9.8,9.11105
1.09,-0.48204,-0.51152,3.02879,-0.76728,-0.39248,4.54318,1.32908,-0.69538,0.0,9.8,9.07576
1.095,-0.48456,-0.49634,3.04337,-0.74451,-0.36953,4.56506,1.32732,-0.69873,0.0,9.8,9.04134
